22011
21890
21769
21644
21505
21362
21230
21099
20956
20816
20693
20574
20439
20298
20176
20061
19928
19796
19681
19559
19417
19281
19165
19040
18896
18763
18648
18524
18382
18250
18139
18026
17905
17805
17729
17643
17543
17458
17386
17292
17180
17089
17019
16938
16847
16762
16682
16590
16489
16394
16306
16213
16109
15994
15864
15720
15580
15461
15359
15274
15234
15265
15387
15617
15967
16440
17006
17635
18313
19021
19731
20431
21124
21798
22411
22944
23412
23814
24131
24374
24574
24736
24844
24902
24934
24945
24923
24875
24818
24758
24687
24614
24547
24479
24415
24370
24346
24325
24295
24268
24252
24231
24199
24166
24137
24087
24008
23918
23825
23711
23574
23442
23322
23184
23028
22886
22765
22638
22510
22414
22353
22295
22239
22216
22226
22238
22246
22265
22290
22309
22330
22356
22372
22367
22351
22327
22285
22220
22154
22088
21996
21871
21745
21634
21519
21386
21250
21119
20976
20810
20647
20505
20365
20222
20079
19934
19778
19618
19471
19331
19192
19067
18952
18829
18696
18571
18466
18368
18263
18165
18079
17989
17883
17781
17700
17629
17550
17472
17406
17333
17236
17138
17065
16998
16912
16820
16741
16656
16552
16446
16355
16263
16156
16051
15959
15882
15835
15852
15953
16143
16437
16844
17342
17907
18532
19207
19901
20574
21213
21819
22374
22865
23302
23686
24011
24262
24451
24598
24701
24762
24803
24828
24818
24776
24729
24685
24624
24545
24470
24403
24327
24243
24175
24129
24086
24038
23992
23950
23900
23836
23769
23699
23606
23492
23378
23261
23130
22997
22878
22766
22646
22527
22429
22345
22259
22177
22120
22082
22047
22032
22053
22088
22113
22137
22180
22227
22255
22267
22284
22298
22291
22267
22240
22206
22151
22079
21998
21912
21815
21709
21596
21472
21336
21197
21047
20888
20733
20595
20462
20315
20162
20028
19912
19792
19671
19564
19466
19357
19240
19139
19041
18923
18797
18686
18585
18479
18374
18287
18209
18119
18023
17930
17840
17748
17660
17584
17515
17443
17372
17306
17232
17143
17064
17004
16936
16855
16793
16763
16747
16762
16846
17013
17260
17597
18038
18567
19150
19768
20413
21061
21695
22313
22911
23465
23946
24362
24733
25053
25302
25485
25626
25738
25818
25863
25881
25880
25859
25819
25770
25712
25648
25597
25567
25534
25486
25450
25440
25429
25407
25400
25404
25393
25368
25345
25309
25245
25166
25081
24981
24858
24729
24608
24480
24339
24200
24081
23972
23864
23778
23730
23700
23667
23646
23657
23684
23704
23727
23768
23815
23858
23896
23931
23952
23955
23944
23919
23880
23839
23792
23725
23631
23525
23431
23346
23237
23104
22976
22858
22735
22606
22485
22365
22235
22107
21988
21867
21731
21593
21473
21362
21242
21126
21030
20932
20815
20696
20596
20503
20404
20305
20216
20134
20047
19950
19850
19755
19671
19587
19497
19404
19316
19241
19171
19093
19012
18941
18872
18796
18721
18659
18600
18519
18420
18328
18245
18152
18051
17949
17837
17717
17615
17551
17525
17549
17660
17881
18200
18611
19127
19736
20385
21047
21730
22425
23087
23696
24268
24805
25275
25663
25997
26284
26501
26652
26774
26878
26940
26964
26975
26973
26943
26896
26853
26815
26775
26740
26710
26677
26637
26611
26615
26626
26622
26618
26627
26629
26601
26564
26547
26528
26478
26402
26316
26222
26111
25982
25845
25709
25578
25456
25350
25251
25158
25082
25022
24960
24902
24877
24885
24888
24874
24862
24850
24826
24795
24776
24770
24764
24753
24738
24715
24678
24632
24582
24516
24431
24348
24272
24179
24053
23921
23803
23675
23525
23372
23233
23096
22949
22799
22654
22513
22378
22242
22096
21950
21816
21700
21593
21471
21342
21230
21135
21031
20922
20825
20734
20627
20507
20392
20284
20170
20059
19971
19888
19785
19680
19600
19530
19444
19356
19291
19235
19163
19079
18995
18909
18814
18710
18605
18503
18398
18286
18168
18048
17925
17803
17683
17567
17468
17390
17333
17307
17342
17477
17723
18073
18531
19096
19736
20411
21102
21810
22513
23185
23818
24411
24950
25423
25832
26187
26481
26716
26907
27063
27173
27237
27278
27305
27302
27271
27240
27216
27176
27114
27060
27020
26976
26924
26888
26873
26844
26794
26754
26731
26703
26668
26642
26614
26555
26468
26375
26280
26171
26047
25920
25798
25666
25528
25404
25292
25184
25092
25027
24983
24948
24930
24936
24951
24964
24984
25012
25035
25037
25036
25042
25038
25015
24978
24927
24856
24770
24684
24599
24502
24402
24313
24224
24120
24007
23892
23765
23618
23467
23327
23187
23029
22866
22718
22576
22424
22270
22132
22001
21858
21703
21557
21422
21279
21132
20992
20859
20727
20593
20463
20340
20217
20092
19963
19828
19694
19576
19475
19371
19268
19182
19101
19006
18907
18821
18741
18647
18543
18449
18361
18262
18158
18068
17987
17893
17796
17705
17609
17493
17367
17251
17137
17004
16859
16727
16613
16512
16439
16430
16509
16690
16979
17388
17918
18546
19235
19956
20690
21424
22144
22827
23450
24014
24526
24968
25324
25604
25830
26003
26120
26193
26244
26273
26262
26218
26165
26102
26023
25937
25855
25774
25692
25615
25548
25476
25394
25319
25259
25192
25112
25046
24990
24912
24810
24710
24616
24510
24389
24262
24125
23979
23837
23709
23588
23467
23362
23289
23238
23189
23142
23115
23103
23094
23092
23105
23127
23146
23161
23179
23191
23191
23189
23185
23160
23104
23042
22992
22935
22845
22740
22638
22525
22392
22245
22095
21944
21787
21623
21454
21281
21106
20939
20780
20614
20444
20287
20140
19983
19816
19665
19532
19393
19248
19116
18997
18882
18767
18655
18540
18420
18305
18204
18100
17982
17875
17788
17700
17591
17473
17376
17292
17191
17077
16966
16859
16744
16620
16494
16366
16234
16120
16038
15966
15906
15897
15962
16097
16319
16665
17144
17719
18357
19051
19776
20496
21198
21878
22512
23083
23600
24069
24471
24787
25032
25232
25382
25464
25494
25502
25493
25454
25395
25325
25235
25125
25020
24927
24825
24712
24618
24550
24479
24399
24325
24254
24178
24103
24037
23964
23866
23753
23642
23523
23381
23229
23081
22932
22773
22616
22485
22375
22275
22191
22126
22069
22020
22001
22013
22030
22048
22093
22168
22230
22263
22299
22351
22392
22411
22422
22427
22411
22368
22309
22239
22159
22075
21982
21867
21730
21586
21446
21299
21135
20965
20807
20656
20494
20326
20168
20016
19856
19691
19535
19383
19224
19067
18918
18765
18607
18465
18339
18205
18061
17933
17829
17728
17613
17493
17379
17266
17144
17022
16906
16798
16693
16590
16491
16384
16266
16158
16068
15973
15871
15783
15713
15634
15558
15535
15598
15747
16000
16379
16883
17493
18186
18928
19683
20426
21155
21867
22534
23128
23666
24159
24588
24936
25221
25464
25660
25796
25880
25930
25949
25936
25891
25830
25760
25681
25601
25527
25445
25355
25276
25210
25135
25050
24981
24931
24880
24830
24786
24737
24676
24610
24549
24479
24380
24259
24139
24011
23864
23713
23578
23452
23320
23192
23083
22990
22913
22863
22838
22808
22770
22751
22759
22774
22788
22814
22853
22895
22933
22966
22982
22975
22951
22925
22890
22832
22753
22670
22583
22466
22318
22167
22020
21871
21717
21564
21404
21239
21081
20937
20783
20610
20442
20302
20163
20000
19832
19684
19546
19401
19260
19140
19033
18923
18814
18711
18605
18489
18371
18252
18133
18024
17931
17838
17734
17628
17534
17440
17337
17240
17153
17061
16949
16832
16730
16634
16522
16399
16289
16189
16081
15980
15910
15864
15833
15845
15950
16175
16514
16966
17530
18195
18929
19696
20476
21251
21995
22690
23330
23908
24416
24859
25240
25550
25793
25989
26143
26250
26319
26364
26381
26355
26303
26251
26199
26137
26074
26027
25991
25950
25906
25872
25841
25805
25771
25747
25726
25693
25651
25612
25570
25519
25457
25381
25288
25175
25048
24919
24784
24639
24496
24367
24235
24095
23976
23889
23812
23747
23713
23704
23687
23658
23646
23654
23657
23655
23665
23679
23678
23665
23653
23638
23620
23598
23566
23511
23433
23353
23272
23171
23054
22944
22844
22725
22575
22423
22280
22122
21948
21787
21646
21496
21338
21201
21086
20954
20799
20657
20532
20394
20244
20112
20004
19892
19773
19664
19564
19459
19351
19254
19162
19061
18955
18849
18742
18636
18542
18467
18393
18311
18237
18168
18083
17983
17892
17818
17733
17627
17525
17434
17325
17194
17075
16976
16871
16764
16696
16686
16719
16811
17017
17353
17792
18325
18963
19682
20430
21180
21932
22663
23343
23978
24570
25098
25540
25900
26202
26449
26628
26747
26832
26889
26904
26880
26836
26779
26712
26642
26580
26520
26458
26400
26346
26284
26210
26154
26125
26090
26036
25996
25972
25931
25870
25814
25759
25680
25582
25490
25395
25281
25154
25027
24896
24755
24618
24501
24396
24285
24180
24105
24057
24018
23986
23974
23977
23972
23963
23963
23970
23968
23958
23952
23947
23933
23908
23874
23826
23761
23689
23615
23517
23395
23276
23162
23024
22861
22706
22566
22415
22247
22080
21918
21747
21571
21406
21253
21097
20945
20804
20661
20506
20354
20214
20061
19886
19720
19579
19438
19277
19119
18982
18855
18726
18602
18492
18401
18320
18234
18147
18061
17974
17886
17795
17699
17597
17500
17408
17303
17186
17083
16989
16877
16750
16637
16537
16428
16304
16181
16056
15923
15795
15678
15572
15497
15490
15584
15776
16069
16496
17074
17752
18482
19257
20061
20851
21601
22314
22987
23600
24141
24613
25012
25328
25571
25754
25879
25949
25983
25991
25968
25909
25829
25751
25673
25577
25469
25372
25289
25200
25108
25032
24972
24916
24866
24824
24777
24719
24660
24596
24505
24386
24261
24137
23993
23828
23673
23540
23393
23224
23074
22958
22847
22734
22644
22587
22542
22506
22492
22490
22486
22495
22520
22542
22556
22573
22594
22607
22603
22587
22565
22521
22448
22362
22283
22199
22087
21946
21805
21664
21512
21361
21217
21061
20887
20709
20542
20367
20180
19997
19824
19641
19442
19265
19119
18970
18813
18670
18544
18417
18287
18160
18028
17890
17759
17644
17538
17424
17305
17200
17108
17005
16889
16781
16678
16565
16449
16338
16226
16104
15981
15860
15726
15577
15435
15313
15189
15065
14987
14983
15046
15182
15435
15830
16349
16966
17665
18416
19182
19945
20691
21400
22058
22663
23213
23694
24089
24405
24663
24867
25006
25088
25139
25169
25162
25116
25051
24974
24886
24793
24702
24607
24507
24415
24337
24258
24174
24105
24052
23989
23906
23827
23756
23660
23534
23413
23306
23180
23034
22898
22772
22630
22477
22334
22202
22076
21972
21895
21836
21790
21767
21772
21790
21803
21823
21862
21912
21957
21995
22031
22065
22083
22078
22062
22037
21990
21924
21855
21780
21690
21587
21480
21369
21249
21124
20996
20865
20726
20578
20428
20275
20121
19971
19820
19651
19472
19314
19176
19021
18842
18679
18539
18398
18255
18130
18020
17907
17794
17690
17590
17486
17386
17299
17221
17141
17057
16969
16874
16771
16672
16579
16487
16391
16296
16201
16088
15959
15834
15724
15630
15558
15521
15541
15639
15831
16136
16560
17093
17728
18447
19215
19998
20779
21551
22287
22963
23580
24144
24638
25041
25367
25638
25854
26002
26096
26163
26200
26189
26146
26105
26057
25977
25883
25812
25756
25691
25625
25573
25532
25493
25449
25403
25363
25326
25290
25253
25212
25165
25109
25034
24934
24822
24713
24598
24465
24326
24196
24076
23954
23836
23737
23647
23557
23477
23430
23413
23404
23403
23417
23436
23449
23466
23490
23510
23524
23540
23546
23522
23472
23420
23367
23285
23171
23065
22975
22871
22748
22628
22511
22380
22240
22113
21988
21844
21691
21551
21417
21278
21140
21008
20868
20709
20544
20386
20224
20055
19898
19762
19640
19508
19376
19261
19146
19016
18888
18783
18685
18573
18460
18365
18272
18166
18066
17985
17901
17802
17713
17638
17555
17464
17384
17310
17215
17100
16996
16900
16792
16674
16565
16460
16345
16236
16161
16126
16140
16236
16445
16771
17209
17762
18416
19134
19884
20662
21448
22200
22898
23561
24189
24737
25191
25586
25936
26213
26412
26566
26688
26757
26772
26776
26782
26759
26708
26661
26627
26580
26517
26469
26443
26409
26363
26328
26303
26270
26230
26196
26166
26130
26090
26043
25979
25897
25807
25710
25595
25461
25329
25199
25054
24895
24757
24650
24545
24438
24360
24318
24274
24215
24175
24165
24159
24151
24156
24169
24169
24160
24155
24146
24126
24110
24103
24087
24043
23979
23908
23829
23730
23619
23507
23386
23246
23098
22958
22821
22674
22522
22378
22228
22060
21895
21744
21592
21427
21265
21116
20966
20810
20669
20547
20422
20286
20161
20051
19930
19794
19672
19562
19431
19274
19133
19015
18889
18748
18627
18531
18426
18311
18212
18133
18054
17972
17893
17811
17718
17612
17501
17389
17277
17166
17055
16928
16790
16674
16581
16479
16358
16251
16171
16075
15941
15805
15686
15574
15483
15454
15511
15666
15943
16365
16916
17567
18309
19117
19942
20748
21525
22279
22982
23610
24163
24652
25068
25395
25652
25865
26036
26152
26213
26244
26249
26221
26178
26127
26055
25959
25861
25769
25669
25560
25473
25416
25358
25288
25234
25203
25166
25116
25073
25038
24985
24914
24841
24752
24633
24496
24355
24204
24043
23891
23751
23611
23467
23340
23245
23172
23102
23044
23017
23012
23006
23003
23024
23055
23066
23064
23074
23091
23090
23071
23053
23036
23005
22958
22907
22851
22777
22684
22577
22456
22323
22189
22060
21920
21762
21609
21466
21310
21141
20985
20840
20677
20495
20319
20152
19979
19804
19643
19491
19338
19189
19052
18912
18763
18619
18486
18349
18199
18063
17955
17845
17709
17569
17450
17334
17208
17090
16991
16890
16777
16662
16550
16441
16340
16251
16158
16054
15952
15858
15760
15639
15505
15376
15253
15126
15009
14907
14804
14684
14565
14488
14474
14526
14677
14966
15393
15942
16602
17360
18176
19005
19827
20627
21375
22056
22675
23233
23705
24085
24401
24667
24858
24977
25065
25130
25140
25091
25024
24952
24850
24723
24596
24468
24338
24222
24116
24012
23913
23824
23748
23676
23596
23521
23456
23385
23287
23170
23052
22924
22765
22595
22444
22294
22121
21951
21812
21691
21571
21464
21383
21317
21262
21228
21215
21212
21221
21249
21286
21316
21346
21391
21438
21465
21478
21486
21471
21428
21373
21315
21246
21153
21046
20934
20812
20670
20523
20388
20253
20098
19934
19774
19600
19407
19222
19054
18880
18699
18536
18388
18220
18026
17843
17685
17526
17354
17199
17075
16949
16804
16672
16555
16423
16279
16151
16037
15911
15773
15649
15542
15432
15321
15223
15134
15036
14926
14810
14691
14565
14440
14322
14200
14072
13961
13881
13823
13802
13868
14053
14351
14762
15312
15998
16761
17559
18390
19239
20049
20791
21479
22118
22685
23176
23607
23970
24252
24467
24628
24727
24768
24773
24760
24724
24658
24576
24490
24396
24289
24184
24099
24022
23940
23864
23806
23747
23665
23576
23505
23438
23353
23272
23205
23123
23007
22878
22749
22604
22437
22269
22114
21959
21808
21676
21567
21475
21406
21365
21337
21307
21287
21292
21316
21346
21380
21420
21451
21461
21461
21463
21462
21438
21399
21362
21307
21217
21116
21028
20932
20805
20673
20555
20433
20292
20150
20020
19883
19723
19561
19415
19267
19105
18941
18783
18626
18469
18316
18160
17995
17833
17689
17555
17415
17272
17132
16988
16832
16680
16544
16413
16271
16122
15987
15862
15732
15604
15499
15403
15290
15173
15076
14988
14883
14761
14642
14530
14415
14295
14182
14076
13965
13851
13754
13684
13656
13703
13855
14116
14494
15016
15682
16446
17269
18138
19032
19894
20698
21455
22153
22765
23298
23767
24168
24494
24754
24955
25092
25175
25229
25263
25271
25253
25231
25208
25162
25088
25018
24967
24908
24830
24762
24717
24667
24603
24555
24533
24505
24463
24427
24395
24338
24253
24168
24084
23974
23834
23690
23542
23382
23223
23076
22939
22801
22676
22577
22498
22429
22378
22354
22338
22307
22277
22275
22289
22284
22271
22279
22297
22299
22289
22281
22262
22215
22150
22077
21993
21891
21782
21670
21547
21416
21283
21144
20989
20827
20671
20514
20344
20174
20024
19886
19737
19580
19432
19288
19136
18985
18846
18709
18563
18413
18268
18121
17971
17831
17702
17567
17428
17301
17182
17055
16922
16804
16711
16630
16551
16477
16409
16336
16250
16155
16061
15966
15873
15785
15692
15591
15495
15407
15310
15197
15082
14979
14881
14780
14689
14630
14613
14652
14775
15016
15378
15862
16474
17197
17986
18804
19643
20483
21279
22007
22679
23294
23826
24272
24654
24977
25221
25388
25517
25623
25681
25689
25683
25675
25631
25551
25475
25415
25345
25268
25211
25172
25126
25076
25045
25033
25014
24986
24960
24925
24864
24788
24715
24642
24550
24445
24334
24212
24072
23923
23786
23658
23523
23386
23265
23169
23086
23009
22954
22924
22908
22899
22900
22911
22930
22947
22959
22965
22971
22983
22986
22973
22955
22936
22899
22840
22769
22701
22628
22535
22429
22319
22201
22070
21930
21791
21653
21511
21366
21221
21068
20899
20734
20586
20448
20306
20171
20048
19924
19796
19673
19555
19434
19300
19165
19041
18920
18799
18684
18572
18452
18325
18206
18098
17984
17874
17784
17705
17613
17512
17423
17337
17228
17110
17009
16914
16806
16691
16589
16497
16391
16276
16175
16076
15958
15830
15716
15615
15515
15434
15402
15431
15530
15725
16039
16487
17058
17721
18447
19213
19996
20776
21519
22216
22873
23485
24025
24472
24838
25140
25369
25528
25640
25722
25774
25785
25757
25709
25640
25552
25462
25377
25291
25200
25119
25051
24978
24902
24843
24798
24750
24697
24654
24616
24552
24456
24362
24279
24174
24041
23911
23796
23665
23511
23368
23247
23118
22981
22872
22800
22727
22647
22589
22556
22529
22513
22526
22561
22595
22625
22659
22692
22716
22737
22753
22749
22722
22681
22628
22552
22453
22349
22243
22126
21992
21852
21716
21572
21411
21253
21111
20968
20811
20648
20487
20323
20161
20009
19861
19697
19527
19379
19249
19112
18970
18841
18721
18591
18452
18326
18211
18094
17985
17893
17806
17711
17610
17514
17419
17317
17213
17119
17026
16928
16828
16739
16658
16576
16494
16410
16318
16210
16095
15980
15857
15729
15625
15562
15527
15529
15614
15808
16098
16493
17011
17635
18321
19052
19817
20584
21311
21987
22616
23186
23686
24116
24481
24774
25003
25185
25323
25401
25422
25422
25417
25383
25313
25239
25173
25092
24987
24888
24808
24719
24614
24528
24468
24410
24349
24296
24240
24169
24088
24006
23911
23791
23652
23509
23359
23197
23031
22874
22730
22593
22473
22382
22310
22249
22210
22203
22211
22213
22224
22267
22321
22362
22406
22470
22527
22554
22570
22590
22600
22589
22561
22520
22461
22384
22302
22215
22112
22002
21902
21798
21668
21524
21389
21255
21106
20952
20806
20660
20501
20340
20195
20062
19930
19806
19696
19584
19460
19341
19237
19127
19001
18883
18777
18663
18539
18427
18335
18245
18152
18073
18006
17920
17812
17717
17645
17569
17477
17396
17335
17269
17186
17101
17018
16918
16807
16712
16631
16540
16448
16394
16398
16458
16597
16854
17239
17728
18313
18988
19718
20459
21196
21924
22621
23254
23819
24339
24805
25196
25521
25797
26027
26197
26307
26378
26421
26437
26424
26383
26326
26264
26199
26131
26062
26001
25952
25905
25857
25813
25781
25755
25723
25690
25666
25639
25593
25538
25486
25424
25333
25222
25106
24975
24822
24666
24524
24383
24238
24121
24045
23980
23914
23875
23874
23879
23873
23884
23920
23948
23954
23970
24004
24026
24025
24022
24019
23995
23949
23901
23850
23785
23709
23637
23553
23438
23300
23164
23029
22881
22728
22586
22447
22295
22148
22017
21882
21728
21576
21432
21280
21120
20975
20848
20721
20597
20490
20394
20291
20172
20047
19925
19799
19672
19555
19451
19342
19228
19129
19042
18946
18848
18778
18734
18677
18594
18509
18427
18332
18232
18148
18073
17984
17881
17790
17700
17587
17465
17356
17252
17134
17018
16927
16853
16793
16788
16871
17039
17300
17694
18226
18852
19537
20278
21057
21822
22543
23239
23905
24503
25022
25485
25897
26230
26483
26686
26845
26951
27024
27082
27114
27110
27081
27048
27007
26938
26855
26786
26725
26657
26593
26557
26535
26496
26451
26427
26409
26373
26328
26292
26253
26193
26113
26023
25924
25813
25692
25564
25435
25306
25179
25054
24930
24817
24726
24648
24566
24487
24433
24397
24370
24361
24371
24383
24386
24384
24389
24390
24378
24363
24349
24320
24270
24216
24161
24087
23992
23902
23820
23716
23589
23467
23349
23206
23041
22893
22772
22638
22478
22329
22199
22052
21880
21718
21575
21423
21260
21110
20977
20833
20674
20523
20383
20234
20082
19949
19826
19693
19557
19436
19324
19204
19082
18978
18883
18780
18670
18572
18483
18376
18263
18163
18069
17966
17860
17766
17678
17581
17487
17402
17314
17219
17122
17014
16888
16755
16635
16523
16398
16271
16169
16099
16066
16105
16256
16526
16914
17430
18071
18808
19598
20411
21224
22007
22733
23408
24035
24588
25059
25471
25824
26097
26293
26448
26569
26629
26630
26611
26584
26523
26428
26340
26272
26196
26099
26012
25941
25864
25784
25720
25677
25628
25567
25524
25503
25473
25423
25367
25305
25222
25119
25009
24886
24747
24598
24443
24280
24113
23962
23836
23718
23605
23524
23476
23432
23393
23391
23424
23451
23461
23484
23527
23553
23551
23555
23570
23557
23510
23466
23430
23372
23285
23194
23104
22993
22868
22747
22617
22467
22310
22154
21990
21807
21614
21427
21244
21060
20889
20736
20584
20419
20260
20119
19976
19823
19681
19558
19433
19299
19180
19084
18980
18854
18734
18632
18526
18406
18289
18176
18057
17941
17832
17719
17595
17472
17360
17248
17127
17010
16908
16811
16694
16563
16439
16321
16196
16076
15978
15894
15822
15802
15882
16069
16364
16794
17362
18029
18764
19555
20375
21171
21913
22619
23285
23869
24364
24802
25193
25510
25741
25919
26065
26153
26176
26170
26151
26096
26005
25913
25830
25733
25624
25523
25423
25311
25203
25120
25053
24974
24891
24825
24766
24688
24594
24498
24397
24274
24139
24016
23890
23744
23584
23434
23292
23145
23014
22918
22839
22764
22714
22693
22677
22667
22687
22734
22777
22814
22869
22941
22996
23027
23058
23085
23086
23070
23059
23044
23003
22939
22865
22784
22693
22600
22509
22400
22268
22137
22010
21863
21695
21537
21401
21259
21097
20942
20800
20648
20490
20350
20229
20100
19954
19812
19678
19535
19385
19253
19142
19024
18893
18778
18678
18576
18474
18387
18312
18225
18126
18037
17957
17867
17768
17675
17591
17504
17411
17317
17217
17107
17000
16899
16790
16677
16587
16528
16486
16477
16541
16706
16971
17346
17859
18502
19227
19992
20791
21605
22388
23118
23808
24455
25024
25511
25941
26311
26599
26810
26978
27111
27194
27233
27247
27230
27176
27101
27031
26966
26885
26800
26729
26667
26598
26528
26475
26437
26395
26349
26309
26272
26231
26181
26123
26055
25970
25866
25752
25633
25517
25400
25266
25120
24983
24868
24763
24654
24557
24478
24404
24332
24282
24265
24274
24290
24314
24354
24394
24414
24427
24452
24473
24470
24458
24450
24421
24354
24278
24215
24135
24024
23913
23814
23701
23564
23434
23320
23189
23031
22882
22751
22605
22439
22285
22146
21994
21830
21688
21568
21439
21296
21160
21028
20880
20728
20599
20489
20373
20249
20129
20012
19893
19778
19675
19576
19469
19363
19269
19172
19058
18941
18839
18755
18671
18578
18484
18402
18329
18243
18145
18043
17939
17831
17717
17600
17500
17436
17414
17453
17591
17856
18249
18761
19389
20113
20893
21697
22503
23289
24033
24709
25318
25869
26351
26755
27094
27378
27594
27741
27847
27922
27946
27931
27912
27894
27851
27780
27713
27661
27596
27512
27437
27381
27326
27267
27226
27205
27176
27134
27102
27081
27038
26971
26909
26853
26776
26670
26558
26440
26310
26180
26061
25948
25827
25707
25605
25518
25431
25349
25291
25255
25224
25195
25184
25194
25213
25232
25255
25279
25289
25279
25259
25237
25212
25177
25130
25080
25030
24974
24900
24806
24706
24604
24490
24359
24232
24114
23993
23854
23702
23551
23402
23244
23082
22926
22765
22592
22426
22282
22145
22000
21859
21737
21616
21477
21333
21205
21086
20963
20846
20746
20654
20558
20456
20354
20252
20151
20046
19934
19813
19694
19588
19489
19386
19288
19201
19110
19006
18901
18805
18708
18597
18473
18346
18217
18086
17965
17868
17809
17811
17914
18140
18490
18965
19563
20263
21024
21812
22603
23383
24133
24830
25462
26025
26521
26946
27295
27575
27796
27963
28082
28157
28192
28200
28189
28152
28091
28025
27972
27926
27867
27802
27745
27687
27621
27550
27483
27426
27374
27335
27308
27276
27234
27189
27138
27071
26984
26889
26791
26676
26548
26424
26311
26191
26063
25949
25862
25788
25718
25662
25624
25595
25576
25573
25581
25586
25587
25592
25591
25576
25562
25558
25551
25518
25460
25398
25333
25247
25147
25049
24940
24805
24663
24528
24387
24229
24073
23928
23776
23614
23467
23348
23228
23092
22963
22844
22706
22543
22392
22261
22127
21982
21849
21735
21615
21483
21366
21266
21155
21032
20924
20832
20731
20620
20522
20431
20328
20223
20136
20063
19980
19897
19828
19756
19661
19557
19463
19364
19239
19102
18986
18882
18766
18659
18587
18548
18544
18616
18803
19096
19488
20000
20627
21322
22055
22815
23573
24292
24962
25586
26148
26626
27031
27382
27678
27900
28048
28150
28218
28245
28239
28210
28160
28088
28005
27918
27831
27741
27650
27571
27499
27421
27341
27273
27211
27135
27046
26968
26898
26822
26742
26662
26568
26455
26334
26213
26078
25927
25779
25641
25511
25397
25309
25242
25178
25116
25078
25063
25056
25063
25098
25151
25206
25263
25332
25402
25456
25489
25503
25494
25467
25433
25391
25330
25245
25150
25055
24949
24825
24694
24565
24434
24290
24133
23975
23822
23672
23521
23366
23209
23060
22928
22806
22682
22569
22466
22355
22230
22103
21990
21887
21777
21667
21567
21462
21342
21219
21106
20996
20879
20758
20639
20514
20378
20253
20141
20024
19896
19775
19671
19572
19470
19381
19324
19310
19355
19478
19701
20035
20474
21006
21616
22275
22959
23653
24332
24970
25564
26114
26603
27021
27377
27679
27921
28099
28228
28330
28403
28429
28420
28398
28353
28274
28183
28098
28008
27902
27808
27739
27671
27592
27526
27480
27432
27368
27310
27266
27204
27115
27028
26949
26846
26716
26590
26475
26344
26192
26053
25933
25814
25704
25624
25572
25524
25481
25465
25479
25508
25550
25609
25677
25739
25791
25839
25880
25912
25940
25963
25971
25951
25916
25881
25841
25781
25706
25625
25531
25419
25296
25169
25040
24912
24787
24658
24525
24392
24256
24115
23969
23829
23705
23587
23461
23335
23223
23113
22992
22868
22754
22641
22520
22406
22310
22209
22081
21947
21834
21732
21621
21520
21438
21350
21242
21137
21043
20940
20823
20710
20609
20505
20397
20304
20244
20222
20255
20368
20578
20895
21323
21855
22462
23117
23809
24526
25238
25908
26532
27115
27642
28099
28497
28849
29139
29350
29500
29620
29701
29726
29722
29712
29681
29616
29542
29482
29423
29349
29282
29234
29181
29117
29065
29039
29016
28986
28968
28965
28941
28888
28837
28790
28717
28611
28500
28398
28283
28152
28031
27922
27800
27664
27544
27450
27363
27285
27223
27170
27124
27091
27080
27083
27090
27109
27136
27154
27163
27177
27197
27202
27181
27147
27111
27064
27003
26937
26870
26792
26694
26586
26477
26362
26240
26116
25984
25842
25698
25562
25433
25297
25160
25033
24904
24760
24608
24466
24328
24180
24033
23904
23779
23648
23525
23421
23321
23207
23097
23004
22903
22786
22679
22593
22509
22418
22338
22269
22183
22074
21976
21895
21805
21700
21611
21546
21464
21359
21265
21186
21092
20983
20893
20834
20791
20779
20838
20986
21230
21586
22064
22645
23285
23964
24677
25393
26072
26718
27335
27899
28387
28811
29195
29525
29779
29978
30139
30255
30319
30351
30375
30375
30344
30305
30263
30208
30148
30094
30046
29991
29931
29879
29831
29781
29747
29736
29729
29703
29660
29614
29560
29489
29411
29331
29238
29115
28978
28849
28719
28577
28441
28333
28238
28134
28039
27978
27934
27892
27866
27865
27863
27848
27844
27862
27871
27861
27858
27866
27856
27826
27804
27792
27757
27691
27630
27578
27511
27425
27338
27250
27143
27019
26899
26779
26647
26515
26391
26265
26122
25968
25822
25682
25528
25368
25233
25107
24964
24818
24694
24576
24441
24305
24188
24064
23920
23785
23670
23544
23402
23278
23175
23059
22934
22829
22744
22652
22548
22463
22403
22332
22244
22167
22097
22009
21910
21827
21748
21646
21527
21415
21303
21182
21068
20986
20942
20928
20976
21132
21410
21792
22277
22865
23525
24213
24912
25620
26309
26946
27533
28078
28562
28972
29314
29590
29794
29935
30034
30096
30112
30096
30069
30031
29964
29874
29787
29701
29606
29509
29428
29358
29290
29226
29175
29128
29076
29026
28981
28921
28846
28779
28714
28623
28501
28381
28272
28144
27990
27839
27707
27578
27443
27317
27215
27127
27048
26991
26959
26939
26930
26946
26981
27012
27041
27086
27134
27163
27179
27196
27202
27173
27124
27079
27029
26960
26892
26829
26749
26640
26522
26404
26263
26099
25945
25810
25672
25521
25377
25244
25105
24953
24800
24657
24516
24373
24232
24089
23936
23780
23639
23507
23375
23252
23149
23054
22955
22863
22784
22701
22598
22487
22389
22300
22209
22126
22057
21984
21901
21821
21749
21666
21562
21452
21350
21240
21117
21000
20903
20817
20736
20688
20713
20833
21054
21389
21845
22406
23040
23723
24432
25137
25817
26466
27067
27608
28097
28532
28893
29173
29385
29553
29681
29760
29802
29821
29814
29773
29707
29634
29549
29444
29340
29249
29159
29069
28993
28930
28860
28779
28712
28664
28612
28549
28490
28435
28363
28264
28157
28053
27933
27790
27645
27504
27352
27196
27060
26949
26846
26756
26696
26660
26622
26586
26574
26582
26589
26602
26642
26691
26727
26756
26798
26839
26847
26834
26823
26801
26742
26660
26585
26506
26400
26287
26190
26091
25973
25857
25751
25631
25484
25338
25204
25055
24891
24740
24604
24450
24278
24124
23991
23849
23693
23557
23441
23323
23203
23095
22989
22870
22746
22634
22536
22442
22354
22278
22200
22102
21998
21910
21828
21728
21620
21525
21439
21345
21242
21143
21049
20945
20831
20718
20608
20500
20402
20321
20260
20244
20309
20472
20741
21139
21659
22264
22928
23638
24381
25128
25842
26511
27137
27703
28194
28612
28968
29261
29486
29658
29794
29883
29927
29946
29946
29918
29866
29809
29753
29689
29615
29541
29472
29405
29339
29276
29220
29176
29141
29114
29094
29074
29059
29047
29017
28957
28881
28804
28720
28615
28497
28376
28241
28089
27935
27798
27674
27556
27457
27384
27318
27255
27211
27192
27178
27162
27162
27182
27198
27200
27209
27227
27233
27216
27201
27198
27179
27133
27084
27033
26961
26866
26774
26688
26579
26450
26333
26234
26121
25986
25857
25737
25605
25464
25333
25208
25077
24947
24830
24722
24606
24480
24353
24222
24079
23937
23813
23699
23573
23440
23323
23223
23124
23026
22936
22854
22768
22678
22586
22492
22395
22299
22203
22106
22015
21935
21855
21760
21657
21561
21465
21346
21205
21067
20929
20775
20619
20477
20348
20231
20155
20159
20250
20430
20726
21160
21710
22339
23033
23783
24549
25285
25987
26660
27272
27808
28286
28711
29061
29331
29550
29730
29844
29891
29906
29903
29865
29799
29737
29687
29618
29523
29430
29349
29269
29198
29148
29105
29052
28998
28966
28949
28915
28869
28830
28785
28723
28661
28603
28530
28433
28334
28238
28121
27978
27836
27704
27569
27432
27313
27220
27145
27073
27006
26951
26908
26880
26868
26862
26855
26858
26878
26899
26903
26894
26886
26864
26820
26765
26711
26649
26562
26455
26340
26215
26074
25924
25768
25602
25434
25276
25125
24966
24791
24611
24440
24277
24108
23932
23766
23611
23452
23290
23132
22975
22815
22662
22516
22361
22204
22067
21945
21811
21670
21544
21428
21297
21156
21030
20912
20785
20658
20547
20451
20363
20282
20207
20127
20032
19926
19824
19728
19624
19520
19435
19353
19242
19109
18975
18844
18707
18572
18452
18350
18268
18234
18274
18403
18647
19038
19573
20216
20944
21747
22581
23393
24175
24932
25644
26279
26831
27315
27733
28071
28334
28539
28688
28774
28812
28816
28776
28694
28604
28514
28405
28279
28166
28073
27971
27857
27763
27695
27625
27548
27489
27453
27409
27344
27285
27237
27171
27076
26978
26882
26760
26606
26447
26295
26130
25956
25795
25647
25496
25354
25240
25147
25062
24997
24963
24947
24939
24947
24985
25033
25065
25092
25129
25158
25170
25184
25198
25190
25151
25105
25057
24984
24877
24768
24668
24542
24380
24227
24099
23959
23785
23610
23445
23267
23080
22907
22744
22568
22390
22229
22076
21915
21752
21601
21451
21290
21133
20999
20877
20736
20591
20468
20351
20217
20086
19973
19858
19733
19620
19525
19431
19330
19231
19140
19048
18949
18846
18741
18632
18514
18391
18268
18146
18034
17937
17846
17778
17773
17860
18055
18363
18801
19369
20039
20771
21546
22339
23119
23868
24581
25254
25875
26415
26872
27264
27589
27834
28011
28149
28249
28299
28310
28304
28271
28206
28132
28059
27974
27875
27778
27685
27586
27488
27415
27362
27297
27215
27149
27102
27052
26991
26933
26878
26808
26718
26622
26521
26404
26273
26134
25992
25846
25703
25566
25432
25306
25208
25135
25072
25020
24999
25008
25027
25052
25099
25165
25226
25267
25303
25345
25366
25362
25358
25361
25340
25285
25224
25167
25090
24994
24902
24809
24693
24557
24428
24300
24158
24009
23865
23720
23558
23392
23237
23085
22919
22750
22601
22466
22316
22161
22024
21897
21758
21615
21487
21372
21257
21143
21042
20951
20864
20780
20695
20610
20530
20452
20368
20268
20164
20076
19994
19901
19812
19738
19666
19579
19484
19394
19300
19191
19081
18987
18898
18805
18742
18749
18845
19044
19378
19851
20430
21091
21822
22598
23378
24136
24871
25580
26240
26836
27364
27825
28213
28523
28769
28966
29108
29195
29247
29268
29248
29205
29165
29121
29055
28979
28912
28847
28767
28685
28619
28565
28505
28449
28418
28395
28358
28320
28303
28285
28236
28172
28119
28053
27949
27833
27728
27610
27465
27325
27210
27092
26957
26840
26756
26676
26592
26533
26503
26471
26430
26413
26426
26438
26440
26453
26475
26479
26464
26455
26450
26423
26382
26347
26312
26255
26183
26117
26047
25947
25825
25711
25598
25460
25311
25170
25019
24851
24697
24563
24419
24253
24100
23969
23828
23666
23510
23377
23242
23092
22950
22822
22694
22568
22462
22370
22264
22144
22036
21939
21828
21711
21607
21509
21388
21258
21147
21041
20913
20776
20662
20560
20448
20343
20258
20170
20060
19945
19833
19704
19558
19427
19322
19223
19129
19072
19082
19168
19341
19631
20049
20583
21221
21942
22704
23465
24214
24950
25649
26278
26834
27334
27778
28143
28436
28676
28860
28978
29043
29077
29077
29035
28968
28906
28839
28743
28634
28548
28465
28365
28274
28209
28138
28044
27956
27889
27816
27729
27660
27613
27561
27500
27437
27365
27269
27151
27023
26888
26738
26587
26447
26306
26157
26021
25911
25822
25736
25654
25593
25546
25500
25471
25466
25467
25463
25470
25493
25512
25516
25520
25529
25529
25512
25483
25446
25397
25323
25228
25128
25017
24883
24729
24558
24382
24211
24048
23890
23728
23569
23420
23266
23090
22903
22733
22576
22414
22252
22102
21960
21819
21676
21533
21386
21234
21088
20949
20811
20670
20536
20414
20290
20152
20014
19896
19788
19663
19530
19406
19291
19172
19047
18926
18808
18690
18573
18453
18330
18210
18096
17981
17853
17732
17642
17587
17563
17599
17740
18000
18385
18907
19555
20294
21075
21875
22675
23444
24162
24834
25452
25986
26427
26797
27107
27343
27506
27619
27692
27723
27714
27675
27619
27545
27447
27329
27200
27061
26914
26767
26626
26485
26351
26236
26135
26039
25955
25890
25826
25740
25633
25528
25417
25279
25126
24978
24832
24668
24498
24349
24217
24077
23938
23827
23739
23647
23559
23504
23480
23468
23475
23508
23550
23591
23638
23696
23750
23793
23834
23866
23874
23859
23841
23815
23759
23680
23607
23534
23435
23310
23190
23078
22952
22814
22679
22545
22397
22248
22104
21952
21787
21626
21476
21328
21170
21012
20868
20730
20586
20445
20322
20209
20091
19970
19858
19747
19628
19509
19396
19279
19157
19043
18940
18825
18699
18581
18469
18342
18206
18090
17996
17903
17822
17784
17800
17866
18012
18281
18679
19190
19803
20498
21242
22001
22759
23500
24201
24847
25438
25969
26428
26806
27113
27362
27548
27671
27749
27793
27795
27754
27688
27612
27520
27412
27300
27182
27052
26927
26821
26723
26622
26532
26460
26392
26313
26235
26168
26097
26003
25890
25776
25661
25534
25407
25289
25165
25023
24887
24779
24682
24583
24504
24450
24396
24341
24313
24322
24340
24355
24394
24463
24529
24581
24637
24697
24739
24762
24787
24812
24818
24807
24792
24764
24704
24622
24541
24454
24349
24241
24143
24040
23912
23771
23643
23513
23358
23193
23047
22907
22757
22617
22499
22375
22229
22087
21967
21846
21713
21600
21511
21405
21273
21152
21050
20938
20811
20694
20589
20468
20328
20208
20111
20001
19877
19765
19662
19543
19419
19320
19251
19204
19203
19285
19466
19751
20152
20669
21281
21959
22685
23442
24196
24918
25610
26272
26875
27398
27846
28235
28562
28818
29014
29167
29276
29340
29372
29382
29362
29312
29248
29177
29097
29023
28965
28912
28848
28787
28750
28735
28717
28688
28662
28642
28607
28566
28534
28495
28426
28342
28258
28159
28043
27934
27842
27743
27628
27523
27446
27372
27294
27234
27198
27167
27137
27127
27149
27179
27204
27235
27273
27307
27336
27372
27406
27415
27405
27392
27370
27329
27279
27234
27183
27109
27021
26942
26865
26768
26665
26571
26461
26325
26188
26062
25929
25779
25636
25516
25391
25245
25104
24979
24849
24705
24563
24433
24312
24191
24071
23958
23852
23753
23661
23567
23461
23358
23268
23178
23073
22964
22870
22780
22676
22563
22459
22353
22235
22120
22024
21930
21823
21725
21658
21616
21606
21668
21827
22077
22417
22868
23423
24037
24681
25354
26044
26713
27338
27935
28502
29001
29417
29784
30115
30383
30581
30739
30864
30930
30942
30935
30920
30877
30812
30751
30697
30632
30558
30500
30465
30428
30380
30340
30307
30268
30231
30206
30183
30134
30068
30009
29950
29869
29770
29674
29583
29478
29362
29253
29145
29029
28917
28813
28712
28623
28556
28508
28460
28413
28389
28381
28367
28357
28369
28390
28393
28380
28375
28375
28361
28341
28321
28289
28237
28181
28132
28074
27991
27893
27792
27682
27556
27419
27292
27173
27041
26900
26765
26630
26487
26342
26199
26058
25919
25782
25648
25518
25398
25291
25187
25080
24980
24894
24808
24711
24609
24509
24403
24284
24165
24067
23984
23889
23785
23692
23603
23499
23395
23310
23223
23105
22977
22863
22745
22612
22492
22397
22303
22209
22155
22170
22245
22395
22667
23071
23570
24140
24777
25461
26141
26792
27417
28007
28545
29039
29498
29910
30248
30516
30741
30919
31031
31091
31128
31139
31105
31045
30988
30921
30818
30699
30593
30486
30367
30263
30184
30104
30011
29931
29875
29811
29725
29649
29590
29514
29407
29304
29220
29121
28989
28846
28705
28545
28368
28212
28087
27956
27816
27710
27638
27573
27523
27506
27515
27523
27525
27541
27568
27584
27592
27609
27630
27632
27615
27600
27579
27531
27461
27385
27305
27210
27102
26994
26885
26769
26648
26525
26390
26238
26087
25942
25784
25609
25444
25298
25140
24963
24806
24674
24531
24374
24229
24092
23939
23779
23640
23519
23389
23258
23145
23034
22907
22772
22650
22538
22420
22299
22193
22098
21999
21892
21786
21676
21556
21428
21299
21169
21037
20909
20794
20697
20630
20620
20691
20861
21148
21561
22080
22675
23334
24046
24779
25496
26184
26836
27434
27961
28419
28825
29174
29448
29654
29809
29901
29922
29902
29868
29802
29693
29575
29471
29353
29212
29081
28972
28860
28734
28622
28536
28449
28354
28278
28227
28161
28063
27969
27889
27784
27643
27498
27357
27196
27022
26860
26720
26582
26446
26335
26245
26159
26083
26041
26028
26021
26029
26076
26139
26182
26217
26273
26329
26354
26367
26388
26395
26368
26328
26290
26231
26143
26050
25965
25861
25732
25608
25496
25362
25197
25041
24904
24755
24589
24440
24311
24172
24016
23863
23713
23551
23389
23243
23107
22966
22823
22693
22565
22425
22284
22154
22029
21888
21746
21626
21513
21380
21240
21114
21008
20908
20803
20700
20593
20476
20365
20273
20211
20199
20281
20479
20782
21192
21732
22381
23076
23784
24514
25248
25947
26604
27227
27800
28294
28707
29056
29335
29533
29669
29766
29827
29835
29806
29768
29715
29624
29513
29404
29303
29205
29117
29047
28974
28882
28799
28735
28662
28574
28495
28425
28336
28223
28116
28012
27882
27733
27591
27450
27288
27118
26971
26845
26723
26615
26536
26476
26423
26383
26364
26360
26364
26384
26425
26473
26521
26579
26644
26694
26716
26727
26739
26742
26728
26700
26666
26619
26545
26450
26349
26239
26116
25987
25852
25702
25549
25409
25274
25117
24943
24775
24609
24430
24251
24092
23951
23813
23676
23547
23417
23280
23146
23023
22896
22761
22639
22535
22430
22314
22199
22097
21997
21886
21771
21661
21550
21428
21296
21168
21045
20925
20828
20772
20769
20843
21025
21325
21743
22286
22936
23644
24377
25125
25875
26604
27284
27913
28495
29013
29451
29825
30155
30426
30611
30732
30824
30877
30886
30884
30881
30850
30783
30713
30653
30580
30490
30421
30375
30318
30239
30175
30141
30098
30032
29975
29933
29876
29800
29729
29668
29583
29466
29344
29221
29084
28939
28811
28694
28566
28433
28320
28228
28143
28070
28017
27981
27949
27929
27930
27935
27932
27928
27927
27927
27919
27908
27905
27898
27877
27847
27812
27763
27694
27611
27514
27400
27269
27134
26996
26846
26695
26556
26418
26266
26108
25963
25822
25671
25522
25384
25238
25068
24894
24745
24611
24468
24327
24199
24064
23911
23767
23649
23531
23392
23260
23156
23049
22917
22786
22675
22565
22446
22329
22220
22100
21967
21841
21717
21584
21454
21338
21232
21134
21071
21070
21147
21324
21637
22094
22667
23324
24046
24815
25598
26362
27102
27812
28459
29019
29507
29949
30331
30628
30860
31054
31198
31284
31332
31365
31364
31317
31255
31196
31121
31029
30946
30878
30800
30711
30637
30576
30506
30434
30380
30340
30286
30217
30152
30085
30004
29916
29825
29725
29607
29472
29336
29195
29043
28900
28776
28655
28530
28429
28359
28298
28237
28191
28163
28131
28095
28083
28096
28104
28095
28097
28114
28113
28089
28074
28073
28053
27998
27934
27871
27784
27678
27581
27493
27382
27242
27100
26960
26806
26650
26508
26370
26212
26037
25864
25690
25510
25332
25166
25004
24833
24660
24502
24356
24209
24070
23947
23826
23689
23550
23422
23300
23177
23058
22945
22830
22708
22591
22481
22363
22245
22137
22031
21919
21808
21704
21598
21480
21350
21222
21097
20958
20814
20690
20576
20455
20354
20320
20360
20471
20698
21086
21622
22259
22984
23788
24624
25446
26235
26994
27706
28346
28912
29414
29853
30223
30521
30749
30909
31013
31080
31109
31091
31044
30987
30912
30811
30700
30599
30502
30397
30290
30189
30089
29993
29905
29827
29753
29671
29592
29522
29436
29334
29243
29164
29065
28934
28794
28658
28513
28353
28194
28047
27898
27745
27611
27507
27419
27340
27279
27238
27207
27189
27194
27210
27213
27204
27210
27227
27230
27227
27230
27222
27181
27116
27049
26974
26875
26771
26679
26568
26418
26256
26110
25962
25793
25627
25479
25320
25137
24954
24784
24600
24394
24200
24033
23858
23663
23478
23313
23140
22948
22765
22600
22430
22254
22093
21944
21786
21627
21490
21366
21226
21081
20952
20829
20690
20549
20436
20335
20218
20094
19989
19886
19760
19615
19476
19345
19207
19064
18930
18801
18667
18535
18432
18378
18385
18485
18716
19098
19644
20341
21143
22003
22900
23807
24689
25509
26255
26931
27524
28026
28450
28808
29102
29320
29466
29567
29619
29606
29544
29465
29369
29232
29077
28948
28827
28681
28527
28398
28284
28167
28048
27940
27843
27743
27643
27548
27458
27365
27258
27124
26967
26802
26644
26481
26305
26131
25967
25807
25642
25487
25363
25262
25171
25101
25073
25079
25092
25112
25154
25207
25241
25262
25298
25342
25362
25359
25361
25358
25326
25274
25221
25156
25060
24940
24813
24678
24527
24364
24196
24024
23848
23677
23506
23318
23121
22940
22768
22575
22363
22171
22000
21816
21616
21426
21245
21056
20862
20676
20496
20312
20133
19972
19812
19641
19478
19336
19190
19027
18880
18766
18647
18502
18357
18229
18097
17952
17810
17681
17549
17410
17283
17176
17098
17076
17146
17323
17625
18083
18713
19487
20353
21270
22215
23150
24027
24837
25589
26267
26848
27337
27754
28101
28358
28528
28636
28687
28678
28632
28571
28494
28393
28276
28152
28014
27861
27712
27581
27451
27312
27178
27060
26941
26814
26704
26614
26513
26393
26284
26181
26049
25884
25717
25557
25380
25188
25007
24839
24674
24521
24396
24291
24198
24138
24119
24115
24113
24133
24188
24251
24308
24378
24460
24523
24547
24561
24581
24588
24570
24535
24492
24435
24365
24286
24197
24095
23981
23859
23723
23561
23392
23237
23088
22925
22750
22581
22416
22236
22053
21884
21718
21536
21347
21170
21007
20845
20685
20532
20381
20222
20068
19930
19788
19635
19492
19363
19223
19062
18913
18790
18659
18504
18359
18238
18113
17972
17845
17731
17604
17469
17355
17265
17197
17182
17263
17463
17799
18298
18974
19789
20683
21618
22571
23503
24375
25181
25930
26598
27159
27636
28055
28398
28646
28826
28968
29059
29090
29084
29063
29024
28962
28887
28802
28703
28592
28488
28392
28294
28202
28126
28052
27966
27873
27791
27714
27630
27548
27477
27398
27289
27153
27017
26880
26724
26561
26412
26271
26118
25966
25843
25745
25647
25556
25494
25460
25434
25416
25418
25436
25458
25489
25534
25589
25643
25686
25719
25737
25746
25745
25721
25663
25587
25514
25438
25342
25231
25123
25014
24888
24754
24633
24514
24366
24204
24052
23897
23720
23545
23397
23252
23083
22911
22757
22596
22416
22251
22116
21978
21819
21669
21537
21395
21239
21096
20971
20835
20683
20544
20422
20292
20155
20039
19935
19815
19685
19565
19449
19322
19197
19088
18981
18855
18726
18620
18529
18449
18424
18506
18707
19018
19469
20088
20848
21688
22576
23494
24396
25236
26013
26737
27391
27956
28444
28861
29202
29467
29674
29835
29940
29995
30021
30018
29976
29912
29845
29770
29676
29575
29479
29376
29259
29142
29046
28966
28885
28811
28751
28689
28613
28541
28488
28428
28334
28230
28134
28018
27863
27699
27556
27418
27271
27132
27006
26878
26747
26636
26553
26479
26413
26374
26352
26323
26299
26302
26327
26350
26368
26392
26411
26406
26386
26370
26351
26307
26244
26185
26120
26033
25931
25838
25738
25605
25459
25330
25204
25053
24895
24755
24613
24444
24266
24102
23943
23770
23590
23418
23251
23083
22920
22760
22598
22436
22283
22135
21977
21818
21678
21550
21407
21251
21113
20990
20854
20714
20595
20489
20371
20248
20136
20027
19910
19794
19691
19588
19471
19357
19259
19152
19029
18912
18822
18767
18763
18857
19093
19469
19982
20643
21429
22280
23146
24018
24880
25688
26424
27100
27709
28224
28649
29014
29323
29558
29723
29842
29911
29925
29901
29868
29829
29761
29668
29571
29468
29346
29212
29094
28989
28871
28749
28652
28574
28494
28409
28334
28262
28177
28075
27962
27837
27698
27549
27383
27202
27023
26865
26722
26577
26439
26326
26229
26133
26045
25982
25938
25901
25891
25915
25947
25976
26011
26053
26087
26104
26110
26119
26119
26094
26052
26010
25958
25880
25782
25682
25579
25465
25344
25227
25105
24969
24818
24647
24456
24263
24087
23920
23743
23568
23406
23242
23059
22868
22693
22529
22357
22183
22019
21853
21672
21494
21337
21184
21018
20857
20714
20568
20411
20269
20146
20021
19887
19765
19658
19542
19408
19275
19151
19025
18889
18749
18610
18471
18332
18197
18061
17922
17795
17699
17638
17622
17690
17885
18224
18705
19331
20093
20944
21834
22739
23648
24520
25313
26036
26696
27269
27739
28126
28448
28692
28856
28968
29045
29070
29040
28988
28930
28836
28700
28562
28444
28311
28152
28001
27867
27727
27581
27462
27375
27281
27169
27068
26978
26871
26745
26628
26520
26387
26229
26073
25920
25747
25566
25403
25261
25122
24990
24892
24817
24745
24686
24669
24686
24707
24725
24764
24816
24862
24901
24942
24983
25014
25029
25030
25014
24981
24941
24884
24795
24682
24572
24465
24332
24180
24035
23888
23720
23533
23354
23184
23008
22828
22657
22488
22307
22124
21953
21786
21605
21422
21258
21108
20955
20801
20660
20525
20387
20252
20126
19997
19855
19707
19562
19418
19278
19148
19026
18903
18780
18665
18549
18424
18304
18204
18113
18019
17945
17923
17966
18082
18312
18704
19245
19904
20666
21515
22397
23253
24076
24865
25588
26223
26794
27309
27738
28068
28333
28546
28679
28737
28763
28770
28734
28653
28565
28480
28365
28222
28087
27963
27827
27683
27560
27461
27357
27245
27145
27050
26944
26828
26715
26601
26472
26330
26182
26025
25855
25685
25522
25359
25191
25036
24911
24808
24720
24649
24599
24568
24549
24546
24565
24602
24646
24701
24770
24844
24908
24963
25009
25033
25035
25029
25006
24953
24882
24813
24739
24641
24530
24422
24310
24176
24028
23885
23738
23572
23408
23265
23117
22940
22766
22619
22472
22300
22130
21988
21847
21689
21535
21399
21256
21095
20939
20800
20662
20524
20405
20296
20172
20035
19913
19803
19677
19536
19405
19282
19150
19016
18898
18797
18697
18599
18510
18418
18318
18234
18191
18184
18216
18328
18560
18913
19388
20004
20754
21582
22439
23321
24210
25051
25817
26524
27174
27734
28194
28589
28932
29202
29394
29541
29649
29693
29682
29656
29619
29548
29453
29359
29264
29152
29032
28927
28837
28749
28666
28592
28519
28447
28386
28340
28294
28232
28160
28087
28003
27898
27782
27666
27546
27409
27259
27117
26987
26863
26744
26636
26543
26472
26432
26417
26408
26409
26426
26447
26463
26490
26539
26597
26642
26680
26717
26739
26736
26721
26706
26682
26620
26531
26443
26348
26223
26085
25965
25852
25713
25558
25416
25281
25127
24956
24789
24628
24461
24292
24131
23977
23826
23678
23532
23384
23237
23103
22977
22838
22694
22572
22472
22360
22237
22125
22017
21891
21757
21640
21534
21414
21291
21194
21108
21008
20901
20812
20732
20630
20517
20421
20336
20235
20121
20012
19903
19781
19657
19546
19443
19349
19291
19286
19347
19510
19819
20285
20879
21581
22380
23234
24088
24921
25732
26506
27213
27844
28406
28896
29303
29637
29912
30123
30267
30359
30423
30459
30456
30429
30397
30348
30266
30169
30085
30013
29939
29870
29819
29777
29735
29695
29661
29629
29594
29565
29541
29506
29456
29402
29334
29235
29115
28995
28873
28734
28584
28440
28304
28173
28051
27948
27863
27787
27726
27690
27664
27641
27635
27650
27675
27700
27729
27769
27806
27825
27831
27832
27824
27796
27752
27700
27638
27557
27467
27376
27276
27168
27061
26944
26805
26662
26535
26416
26282
26134
25994
25858
25701
25529
25368
25217
25056
24897
24762
24637
24495
24348
24224
24103
23956
23801
23669
23549
23421
23296
23190
23080
22953
22839
22744
22637
22515
22409
22327
22237
22131
22042
21973
21893
21800
21720
21651
21569
21475
21387
21297
21187
21067
20962
20868
20766
20662
20565
20462
20349
20248
20174
20127
20126
20215
20423
20749
21199
21790
22504
23284
24091
24919
25758
26563
27304
27988
28618
29170
29634
30035
30388
30659
30844
30985
31096
31152
31157
31147
31129
31080
31000
30922
30847
30761
30679
30620
30573
30515
30447
30393
30354
30312
30272
30240
30201
30144
30082
30030
29971
29893
29801
29700
29582
29441
29293
29156
29019
28879
28750
28641
28536
28432
28352
28304
28265
28231
28226
28249
28264
28268
28288
28322
28339
28341
28348
28356
28343
28314
28289
28259
28204
28136
28068
27988
27886
27773
27662
27544
27410
27270
27130
26981
26822
26671
26536
26401
26255
26109
25966
25813
25647
25486
25331
25163
24989
24834
24695
24544
24382
24240
24120
23995
23864
23742
23626
23498
23368
23251
23143
23033
22930
22837
22743
22644
22552
22474
22397
22308
22221
22144
22056
21955
21868
21800
21720
21612
21503
21405
21292
21160
21042
20943
20825
20673
20528
20405
20281
20162
20086
20068
20109
20238
20499
20901
21434
22087
22840
23652
24478
25299
26103
26866
27573
28227
28818
29322
29733
30074
30357
30566
30705
30806
30883
30914
30893
30847
30792
30712
30606
30497
30394
30282
30160
30053
29963
29876
29798
29745
29705
29652
29589
29536
29487
29417
29333
29255
29170
29055
28916
28777
28639
28485
28325
28184
28048
27898
27754
27646
27566
27487
27421
27383
27364
27349
27339
27342
27350
27355
27363
27378
27390
27401
27415
27415
27388
27344
27307
27271
27211
27126
27029
26917
26779
26625
26475
26322
26155
25981
25816
25654
25482
25306
25130
24945
24753
24573
24411
24250
24079
23913
23760
23600
23424
23260
23121
22979
22822
22682
22565
22439
22300
22181
22089
21987
21859
21745
21652
21550
21436
21335
21251
21158
21050
20948
20844
20721
20591
20469
20349
20221
20089
19958
19818
19665
19518
19387
19268
19163
19099
19109
19203
19398
19734
20224
20844
21551
22323
23137
23954
24748
25514
26238
26888
27454
27955
28395
28752
29026
29249
29427
29534
29571
29575
29551
29482
29380
29268
29150
29017
28874
28728
28572
28416
28278
28161
28049
27937
27843
27768
27687
27596
27513
27436
27336
27203
27069
26947
26802
26626
26459
26311
26154
25987
25847
25743
25642
25548
25495
25483
25478
25477
25502
25553
25609
25671
25746
25820
25875
25911
25946
25978
25992
25999
26012
26011
25972
25906
25839
25762
25660
25554
25464
25364
25240
25109
24984
24846
24685
24528
24382
24214
24019
23834
23665
23482
23284
23104
22945
22776
22596
22439
22308
22178
22051
21942
21842
21725
21592
21468
21351
21223
21092
20974
20860
20727
20581
20450
20334
20215
20099
19992
19873
19730
19584
19455
19327
19187
19055
18941
18832
18736
18700
18751
18875
19090
19449
19961
20590
21319
22140
23014
23889
24736
25543
26291
26958
27542
28059
28502
28858
29143
29371
29532
29628
29687
29725
29724
29684
29631
29577
29494
29375
29257
29157
29050
28928
28823
28745
28662
28565
28488
28433
28367
28285
28213
28149
28058
27946
27836
27725
27596
27459
27331
27201
27053
26903
26771
26651
26538
26451
26395
26351
26313
26306
26338
26381
26417
26472
26557
26634
26686
26736
26795
26837
26848
26853
26860
26853
26823
26782
26728
26654
26568
26481
26382
26265
26147
26041
25931
25799
25650
25506
25361
25194
25017
24855
24699
24525
24338
24164
24001
23825
23642
23481
23331
23170
23010
22874
22756
22630
22502
22389
22282
22165
22043
21929
21824
21719
21612
21499
21380
21259
21143
21034
20923
20814
20716
20619
20510
20397
20289
20180
20058
19928
19819
19739
19684
19689
19803
20042
20401
20897
21548
22313
23125
23956
24805
25642
26429
27163
27851
28468
28993
29442
29824
30130
30365
30552
30702
30790
30813
30802
30773
30709
30620
30532
30442
30334
30216
30114
30031
29955
29891
29849
29819
29786
29751
29727
29710
29682
29646
29614
29564
29479
29376
29277
29158
29007
28856
28717
28564
28398
28252
28134
28017
27897
27806
27751
27703
27655
27633
27638
27640
27628
27641
27687
27720
27726
27738
27758
27759
27742
27734
27733
27715
27685
27648
27590
27496
27381
27261
27134
26985
26824
26669
26516
26350
26176
26011
25857
25697
25536
25381
25231
25071
24903
24739
24578
24417
24253
24089
23928
23777
23634
23484
23323
23174
23054
22944
22822
22697
22581
22465
22340
22210
22089
21968
21833
21704
21590
21478
21362
21255
21157
21049
20926
20813
20715
20608
20482
20365
20268
20161
20038
19932
19864
19822
19818
19917
20156
20520
21009
21649
22422
23250
24091
24944
25788
26584
27321
28011
28643
29183
29632
30015
30330
30568
30738
30864
30954
30992
30988
30961
30909
30827
30732
30647
30567
30476
30376
30287
30211
30138
30066
30002
29951
29909
29864
29817
29764
29702
29639
29564
29466
29357
29248
29132
29000
28858
28719
28575
28421
28273
28152
28051
27945
27839
27757
27694
27635
27596
27588
27586
27563
27543
27553
27570
27574
27582
27606
27619
27599
27564
27534
27484
27404
27316
27231
27124
26992
26857
26724
26575
26416
26266
26121
25955
25773
25602
25441
25272
25100
24943
24792
24629
24456
24280
24092
23890
23696
23521
23346
23160
22985
22829
22662
22479
22313
22172
22025
21858
21703
21568
21422
21260
21114
20994
20862
20703
20564
20456
20344
20217
20108
20016
19907
19774
19650
19539
19409
19255
19108
18971
18819
18657
18506
18370
18252
18187
18213
18345
18598
19001
19568
20269
21067
21949
22885
23811
24683
25500
26255
26927
27511
28023
28470
28835
29114
29332
29493
29586
29616
29613
29587
29523
29425
29319
29208
29074
28925
28785
28647
28489
28321
28177
28052
27919
27796
27710
27638
27549
27454
27376
27289
27164
27022
26883
26723
26532
26348
26190
26023
25833
25663
25531
25401
25269
25170
25109
25055
25002
24979
24983
24981
24975
24995
25041
25078
25101
25137
25181
25202
25203
25203
25189
25147
25086
25016
24927
24813
24687
24553
24396
24217
24044
23884
23709
23509
23309
23119
22915
22696
22490
22307
22118
21914
21718
21540
21349
21145
20968
20821
20665
20491
20331
20194
20053
19902
19763
19640
19508
19365
19235
19122
19012
18903
18798
18697
18594
18491
18397
18306
18209
18115
18031
17938
17831
17735
17657
17576
17487
17419
17396
17413
17480
17653
17971
18423
19002
19723
20565
21464
22375
23293
24199
25039
25794
26474
27071
27567
27969
28306
28580
28775
28910
29005
29055
29048
28996
28928
28841
28716
28571
28442
28318
28174
28030
27904
27775
27624
27474
27350
27234
27113
27001
26901
26784
26639
26495
26359
26205
26036
25878
25724
25543
25342
25158
24999
24844
24699
24587
24508
24440
24391
24382
24396
24414
24438
24486
24548
24597
24643
24704
24763
24792
24801
24809
24806
24770
24723
24682
24626
24541
24450
24359
24246
24105
23959
23817
23663
23496
23335
23173
22981
22771
22575
22391
22200
22010
21833
21656
21462
21259
21071
20895
20719
20552
20400
20247
20088
19944
19817
19691
19561
19446
19344
19235
19110
18993
18891
18776
18643
18515
18402
18286
18162
18046
17942
17827
17700
17598
17543
17529
17582
17751
18058
18503
19102
19865
20749
21686
22637
23587
24501
25337
26093
26791
27422
27957
28399
28778
29092
29322
29480
29592
29659
29667
29632
29585
29529
29450
29359
29267
29163
29044
28927
28829
28733
28633
28544
28465
28378
28291
28218
28151
28070
27976
27881
27776
27649
27510
27374
27240
27092
26933
26779
26629
26483
26356
26253
26160
26072
26010
25979
25949
25911
25902
25934
25969
25991
26022
26069
26100
26102
26107
26129
26132
26106
26080
26060
26011
25925
25838
25758
25655
25529
25417
25321
25205
25062
24919
24775
24617
24454
24299
24145
23979
23805
23633
23461
23279
23099
22932
22766
22586
22408
22250
22100
21945
21791
21650
21513
21370
21228
21101
20981
20856
20739
20638
20537
20423
20318
20221
20104
19973
19853
19740
19614
19478
19358
19251
19132
19004
18883
18765
18646
18552
18508
18514
18585
18773
19123
19627
20259
21022
21905
22850
23792
24710
25594
26426
27182
27858
28454
28960
29372
29698
29949
30133
30263
30359
30419
30430
30402
30356
30291
30204
30106
30016
29927
29818
29700
29602
29524
29444
29362
29298
29248
29190
29121
29062
29001
28924
28844
28765
28670
28548
28416
28281
28129
27958
27798
27659
27523
27376
27245
27148
27054
26959
26891
26849
26805
26759
26746
26772
26794
26798
26810
26829
26840
26841
26846
26852
26843
26817
26778
26721
26641
26554
26464
26350
26209
26073
25947
25806
25642
25489
25354
25205
25032
24865
24713
24544
24348
24167
24014
23849
23662
23498
23366
23222
23057
22898
22742
22560
22357
22167
21995
21825
21659
21515
21387
21252
21110
20971
20835
20696
20567
20458
20354
20240
20127
20022
19912
19795
19694
19607
19506
19382
19252
19125
18983
18821
18668
18536
18407
18279
18190
18162
18198
18325
18600
19044
19634
20356
21210
22149
23103
24036
24944
25809
26597
27297
27921
28462
28900
29246
29529
29751
29900
29985
30032
30043
30010
29946
29868
29774
29662
29548
29444
29336
29220
29113
29020
28925
28820
28722
28637
28548
28457
28377
28296
28189
28063
27951
27855
27741
27607
27472
27330
27170
27002
26846
26701
26557
26422
26300
26184
26081
26010
25972
25945
25923
25925
25953
25975
25975
25987
26023
26048
26048
26059
26089
26098
26069
26034
26000
25936
25841
25745
25644
25515
25363
25211
25057
24888
24717
24561
24401
24211
24004
23810
23621
23419
23214
23032
22859
22667
22464
22276
22099
21905
21694
21495
21314
21133
20957
20797
20643
20481
20316
20163
20021
19877
19732
19591
19446
19300
19157
19011
18858
18708
18573
18442
18297
18148
18010
17872
17714
17551
17414
17312
17243
17241
17354
17598
17973
18503
19206
20040
20937
21866
22819
23752
24613
25395
26109
26741
27277
27723
28091
28376
28574
28705
28784
28816
28806
28768
28699
28596
28474
28349
28211
28059
27907
27765
27623
27469
27309
27164
27032
26891
26749
26627
26515
26389
26250
26114
25975
25824
25672
25530
25384
25217
25037
24869
24715
24574
24454
24365
24298
24239
24196
24179
24177
24186
24229
24301
24365
24410
24467
24539
24595
24629
24662
24696
24707
24693
24674
24639
24574
24492
24403
24300
24179
24055
23930
23784
23614
23448
23290
23112
22912
22724
22557
22385
22211
22061
21930
21782
21603
21427
21266
21094
20904
20729
20573
20403
20212
20039
19893
19744
19589
19447
19317
19186
19065
18962
18862
18745
18620
18499
18374
18232
18085
17957
17838
17708
17592
17534
17538
17604
17770
18084
18555
19172
19920
20778
21697
22624
23528
24398
25212
25950
26607
27186
27679
28094
28448
28739
28945
29073
29154
29201
29204
29174
29132
29076
28988
28876
28763
28650
28526
28406
28303
28212
28119
28033
27969
27914
27845
27759
27661
27555
27441
27319
27199
27081
26961
26850
26751
26646
26522
26389
26260
26131
26009
25916
25849
25797
25768
25775
25806
25842
25889
25956
26024
26081
26135
26198
26256
26286
26300
26322
26334
26314
26281
26251
26202
26120
26031
25954
25870
25765
25651
25537
25410
25261
25107
24961
24814
24663
24514
24363
24196
24021
23861
23710
23551
23396
23255
23110
22947
22783
22640
22508
22365
22224
22105
21989
21856
21715
21587
21463
21331
21208
21108
21007
20889
20777
20685
20583
20457
20335
20229
20108
19966
19843
19763
19711
19701
19787
20003
20336
20791
21392
22116
22898
23706
24548
25403
26216
26969
27677
28319
28875
29355
29780
30141
30420
30628
30784
30890
30948
30971
30976
30961
30920
30862
30794
30711
30616
30533
30467
30396
30315
30251
30212
30173
30126
30099
30095
30073
30021
29967
29909
29821
29708
29601
29506
29393
29256
29120
28989
28850
28713
28595
28489
28389
28305
28245
28203
28179
28179
28199
28221
28236
28258
28286
28297
28291
28292
28299
28293
28269
28252
28245
28216
28161
28107
28060
27991
27891
27792
27704
27596
27464
27335
27209
27068
26923
26794
26669
26524
26365
26207
26054
25896
25737
25582
25431
25284
25143
25006
24858
24698
24553
24426
24293
24146
24014
23903
23791
23674
23575
23501
23421
23324
23236
23163
23071
22947
22824
22715
22590
22450
22328
22221
22107
21995
21911
21854
21808
21791
21846
21989
22221
22569
23054
23659
24342
25073
25834
26593
27323
28019
28674
29269
29786
30236
30631
30968
31242
31466
31649
31782
31858
31893
31905
31889
31843
31784
31714
31626
31526
31434
31353
31268
31185
31127
31086
31041
30993
30961
30934
30892
30839
30796
30749
30679
30593
30510
30416
30287
30140
30005
29869
29718
29574
29464
29367
29264
29177
29126
29092
29064
29052
29058
29071
29086
29113
29147
29173
29198
29229
29246
29241
29228
29219
29204
29173
29131
29085
29019
28924
28807
28680
28545
28395
28241
28100
27962
27814
27665
27526
27393
27244
27083
26933
26794
26649
26501
26361
26223
26080
25946
25830
25710
25574
25446
25331
25203
25056
24923
24807
24677
24533
24401
24286
24165
24041
23934
23835
23723
23607
23506
23412
23308
23197
23096
22992
22875
22754
22644
22537
22418
22308
22238
22208
22211
22276
22439
22716
23103
23597
24191
24861
25573
26299
27020
27722
28400
29042
29623
30127
30561
30944
31268
31521
31713
31857
31950
31986
31979
31949
31899
31823
31734
31644
31553
31461
31378
31306
31232
31150
31074
31012
30956
30899
30843
30791
30738
30672
30588
30495
30396
30282
30153
30016
29871
29726
29587
29445
29292
29141
29018
28923
28838
28764
28709
28672
28646
28631
28634
28653
28679
28707
28741
28773
28799
28822
28842
28849
28834
28807
28772
28713
28629
28539
28444
28335
28207
28066
27924
27784
27640
27493
27346
27202
27056
26908
26754
26592
26434
26288
26145
25992
25836
25692
25552
25402
25252
25116
24988
24850
24711
24585
24462
24321
24174
24049
23935
23804
23669
23555
23441
23305
23165
23048
22940
22820
22697
22580
22461
22333
22202
22074
21955
21849
21757
21680
21634
21650
21757
21969
22293
22738
23301
23947
24633
25337
26051
26754
27417
28033
28602
29108
29536
29894
30198
30440
30609
30721
30804
30854
30851
30803
30739
30665
30573
30466
30362
30264
30166
30060
29955
29855
29763
29674
29579
29484
29393
29304
29210
29103
28991
28878
28751
28598
28436
28283
28129
27961
27803
27675
27568
27460
27358
27284
27237
27200
27178
27187
27212
27231
27255
27305
27366
27417
27457
27498
27533
27550
27558
27564
27552
27518
27470
27410
27331
27239
27140
27026
26885
26728
26582
26448
26304
26151
26001
25848
25689
25524
25363
25204
25043
24887
24739
24595
24455
24328
24212
24083
23937
23803
23691
23575
23453
23339
23231
23105
22962
22840
22752
22661
22550
22447
22356
22247
22111
21984
21879
21765
21642
21540
21465
21401
21359
21381
21489
21681
21979
22399
22926
23536
24209
24935
25684
26422
27140
27826
28461
29028
29529
29975
30360
30663
30893
31062
31179
31246
31269
31259
31232
31190
31137
31075
31007
30938
30872
30798
30718
30645
30588
30536
30479
30427
30387
30340
30273
30194
30120
30044
29953
29859
29765
29654
29518
29379
29254
29127
28984
28847
28728
28616
28510
28431
28386
28352
28321
28317
28343
28370
28391
28436
28503
28549
28563
28578
28603
28606
28581
28563
28557
28532
28487
28441
28389
28313
28222
28130
28026
27898
27761
27634
27511
27378
27234
27094
26954
26807
26664
26534
26409
26279
26155
26042
25928
25810
25701
25601
25494
25376
25272
25181
25079
24967
24870
24786
24689
24575
24473
24390
24304
24213
24137
24070
23984
23888
23801
23709
23595
23479
23384
23321
23282
23282
23360
23530
23785
24145
24629
25209
25850
26546
27275
27996
28688
29361
30010
30591
31088
31524
31909
32228
32482
32695
32872
32993
33067
33117
33145
33141
33119
33096
33069
33030
32988
32949
32908
32853
32796
32752
32713
32669
32630
32606
32583
32547
32507
32472
32418
32334
32240
32140
32017
31874
31740
31621
31491
31342
31197
31065
30940
30825
30731
30657
30594
30544
30510
30482
30453
30437
30444
30463
30480
30501
30527
30548
30549
30525
30487
30434
30362
30283
30195
30091
29979
29875
29777
29666
29541
29427
29321
29205
29076
28952
28835
28702
28546
28380
28214
28044
27870
27708
27565
27420
27258
27105
26972
26839
26711
26606
26512
26401
26276
26159
26047
25924
25796
25686
25586
25473
25355
25255
25164
25052
24930
24823
24713
24585
24467
24374
24273
24155
24053
23969
23869
23748
23644
23574
23523
23497
23546
23701
23949
24292
24753
25323
25956
26631
27348
28088
28806
29484
30135
30750
31303
31790
32221
32585
32863
33070
33233
33354
33424
33460
33484
33489
33457
33405
33366
33328
33271
33213
33171
33128
33076
33036
33019
32991
32941
32903
32887
32861
32818
32784
32751
32690
32604
32528
32464
32372
32249
32122
31996
31853
31706
31581
31480
31376
31264
31165
31086
31016
30959
30925
30901
30866
30829
30815
30814
30801
30785
30786
30792
30787
30775
30766
30745
30697
30638
30573
30481
30365
30253
30145
30009
29839
29675
29523
29353
29163
28982
28812
28636
28460
28296
28139
27968
27786
27615
27450
27273
27096
26942
26793
26627
26452
26295
26144
25974
25801
25657
25528
25395
25269
25158
25045
24920
24797
24685
24567
24441
24332
24239
24127
24000
23888
23787
23665
23528
23403
23288
23164
23038
22928
22835
22730
22607
22486
22366
22238
22111
21996
21892
21792
21717
21713
21804
21991
22302
22770
23380
24084
24853
25671
26507
27321
28093
28818
29488
30095
30634
31096
31478
31785
32027
32203
32315
32382
32419
32413
32359
32276
32193
32107
32007
31903
31808
31716
31619
31528
31457
31394
31325
31266
31227
31185
31134
31091
31052
30990
30896
30794
30688
30563
30422
30279
30136
29990
29836
29681
29534
29395
29267
29158
29062
28978
28918
28887
28874
28865
28864
28879
28901
28918
28938
28966
28989
28993
28981
28959
28923
28867
28804
28736
28640
28518
28397
28283
28152
28002
27854
27711
27545
27356
27170
26996
26817
26627
26447
26281
26107
25917
25736
25571
25398
25215
25046
24897
24743
24584
24438
24297
24137
23962
23800
23660
23528
23399
23280
23161
23027
22887
22756
22627
22492
22361
22240
22113
21966
21815
21679
21546
21405
21274
21163
21051
20943
20884
20907
21000
21178
21496
21970
22557
23224
23969
24771
25579
26365
27131
27857
28504
29063
29554
29982
30334
30612
30824
30972
31065
31120
31146
31132
31079
31001
30904
30789
30665
30547
30442
30334
30217
30103
30003
29904
29800
29710
29640
29562
29463
29365
29270
29155
29018
28881
28744
28581
28391
28210
28045
27875
27701
27554
27433
27315
27205
27118
27053
27005
26978
26980
27003
27032
27063
27106
27157
27206
27257
27299
27319
27315
27302
27279
27233
27167
27097
27021
26922
26798
26671
26552
26418
26271
26123
25970
25796
25608
25434
25274
25105
24931
24768
24601
24414
24223
24051
23891
23724
23563
23425
23293
23143
22982
22833
22688
22523
22355
22212
22082
21946
21807
21679
21556
21426
21300
21190
21087
20985
20891
20799
20689
20567
20452
20340
20213
20085
19977
19884
19802
19752
19770
19872
20070
20398
20880
21502
22234
23047
23910
24778
25619
26432
27210
27923
28560
29131
29631
30036
30345
30590
30790
30934
31020
31067
31080
31060
31011
30935
30841
30739
30632
30528
30426
30322
30227
30148
30072
29993
29924
29872
29826
29771
29709
29646
29571
29474
29354
29219
29067
28896
28728
28569
28406
28241
28093
27963
27842
27728
27626
27541
27475
27424
27387
27371
27370
27372
27374
27381
27397
27426
27461
27489
27500
27499
27495
27476
27431
27370
27306
27232
27141
27042
26939
26821
26685
26537
26384
26227
26066
25905
25745
25577
25404
25242
25089
24929
24758
24589
24431
24277
24117
23948
23777
23608
23438
23264
23092
22921
22747
22577
22417
22271
22145
22032
21912
21779
21644
21520
21405
21290
21180
21091
21013
20928
20841
20760
20673
20571
20460
20356
20252
20135
20018
19920
19828
19721
19617
19542
19501
19496
19569
19759
20070
20508
21105
21853
22686
23564
24480
25408
26294
27110
27874
28582
29201
29732
30192
30578
30878
31103
31276
31403
31477
31503
31507
31491
31447
31386
31320
31248
31165
31085
31023
30960
30885
30820
30770
30714
30651
30604
30576
30543
30492
30438
30389
30331
30250
30147
30033
29910
29779
29649
29520
29380
29240
29115
29001
28887
28783
28707
28654
28597
28541
28505
28477
28441
28410
28402
28407
28399
28381
28375
28373
28351
28314
28285
28250
28188
28117
28059
27997
27908
27795
27672
27539
27396
27251
27108
26955
26799
26647
26484
26309
26138
25984
25839
25688
25536
25394
25251
25096
24937
24789
24648
24499
24354
24223
24090
23946
23808
23682
23555
23425
23313
23219
23114
22991
22875
22777
22671
22550
22442
22354
22260
22151
22057
21985
21901
21794
21695
21613
21519
21407
21307
21225
21126
21008
20902
20809
20704
20586
20478
20396
20357
20395
20544
20825
21248
21820
22519
23309
24156
25041
25934
26794
27597
28347
29030
29625
30136
30586
30979
31288
31511
31680
31807
31869
31869
31851
31826
31772
31695
31618
31539
31446
31348
31275
31221
31158
31091
31027
30956
30877
30800
30738
30681
30613
30545
30482
30402
30295
30184
30079
29955
29805
29660
29527
29381
29221
29072
28953
28851
28757
28679
28617
28559
28513
28493
28492
28495
28511
28541
28566
28573
28577
28594
28613
28613
28600
28576
28531
28460
28380
28304
28224
28124
28017
27914
27798
27658
27514
27388
27259
27104
26948
26809
26666
26506
26347
26205
26065
25913
25761
25618
25466
25302
25141
24982
24809
24628
24457
24291
24117
23944
23787
23641
23494
23346
23207
23073
22937
22804
22678
22553
22425
22301
22182
22056
21923
21797
21685
21571
21451
21343
21249
21145
21025
20912
20815
20711
20594
20484
20385
20280
20173
20093
20059
20081
20184
20414
20794
21300
21922
22667
23509
24388
25268
26143
26989
27763
28449
29066
29610
30058
30419
30718
30955
31113
31209
31271
31294
31260
31186
31103
31015
30906
30782
30660
30540
30412
30282
30161
30049
29944
29841
29732
29616
29500
29392
29287
29175
29065
28958
28842
28710
28571
28433
28290
28132
27968
27810
27657
27506
27364
27244
27141
27047
26977
26935
26904
26884
26897
26937
26985
27036
27102
27176
27230
27260
27293
27334
27354
27336
27301
27262
27198
27104
27003
26905
26793
26663
26536
26411
26266
26105
25946
25786
25612
25429
25250
25067
24862
24647
24450
24265
24073
23881
23705
23532
23337
23127
22937
22759
22571
22392
22239
22087
21915
21748
21605
21459
21298
21148
21016
20872
20705
20548
20411
20265
20107
19967
19843
19702
19547
19407
19275
19126
18967
18822
18690
18558
18444
18386
18398
18494
18710
19091
19634
20309
21107
22011
22959
23898
24821
25709
26508
27202
27819
28362
28807
29148
29419
29634
29779
29857
29891
29887
29851
29793
29711
29598
29458
29311
29169
29029
28879
28726
28581
28440
28303
28174
28055
27943
27832
27721
27610
27484
27342
27188
27010
26804
26576
26354
26156
25972
25794
25631
25492
25372
25264
25169
25100
25060
25041
25034
25040
25064
25113
25186
25262
25315
25348
25386
25427
25459
25482
25499
25508
25498
25465
25414
25348
25258
25149
25037
24917
24779
24630
24483
24329
24149
23952
23766
23590
23403
23209
23020
22832
22631
22425
22225
22029
21831
21641
21460
21268
21068
20881
20708
20521
20322
20140
19973
19793
19601
19429
19275
19118
18961
18819
18684
18540
18389
18242
18100
17963
17835
17714
17589
17457
17333
17234
17172
17169
17271
17520
17935
18512
19245
20116
21084
22094
23105
24085
25008
25856
26613
27274
27840
28318
28718
29033
29261
29424
29541
29610
29628
29605
29557
29484
29381
29262
29148
29032
28897
28757
28635
28522
28400
28274
28159
28050
27927
27793
27671
27559
27437
27307
27179
27049
26908
26752
26583
26408
26232
26056
25882
25712
25560
25437
25334
25238
25160
25118
25105
25099
25105
25140
25196
25248
25300
25366
25441
25502
25547
25588
25617
25627
25620
25605
25573
25511
25423
25323
25211
25091
24973
24859
24735
24594
24452
24311
24151
23970
23794
23629
23448
23245
23051
22874
22686
22489
22309
22145
21969
21778
21595
21421
21245
21073
20919
20780
20640
20499
20363
20220
20073
19939
19812
19673
19525
19394
19281
19159
19022
18896
18790
18675
18543
18421
18315
18195
18060
17940
17849
17776
17740
17796
17970
18266
18714
19340
20120
21014
21987
22999
23998
24947
25829
26643
27379
28021
28577
29058
29449
29741
29961
30141
30269
30328
30344
30341
30315
30258
30192
30136
30072
29987
29895
29804
29704
29593
29493
29408
29317
29219
29136
29060
28977
28895
28823
28745
28650
28542
28429
28302
28159
28016
27882
27751
27613
